Energy (eV),Intensity
925.41,0.081422772
925.42,0.081148831
925.43,0.080690006
925.44,0.080024876
925.45,0.079176242
925.46,0.078195508
925.47,0.07713456
925.48,0.076045282
925.49,0.07497956
925.5,0.073989278
925.51,0.073126322
925.52,0.072442576
925.53,0.071975667
925.54,0.071705994
925.55,0.0715996
925.56,0.071622529
925.57,0.071740824
925.58,0.071920528
925.59,0.072127685
925.6,0.072328338
925.61,0.072488797
925.62,0.072591525
925.63,0.072644106
925.64,0.072656297
925.65,0.072637854
925.66,0.072598536
925.67,0.072548097
925.68,0.072496295
925.69,0.072452887
925.7,0.072426901
925.71,0.072418868
925.72,0.072423809
925.73,0.072436655
925.74,0.072452334
925.75,0.072465776
925.76,0.072471912
925.77,0.072465671
925.78,0.072441982
925.79,0.072398362
925.8,0.072342722
925.81,0.072285587
925.82,0.072237481
925.83,0.072208929
925.84,0.072210455
925.85,0.072252584
925.86,0.07234584
925.87,0.072500459
925.88,0.072709125
925.89,0.072937179
925.9,0.073147592
925.91,0.073303337
925.92,0.073367387
925.93,0.073302714
925.94,0.073072291
925.95,0.07263909
925.96,0.071970997
925.97,0.071093446
925.98,0.070069208
925.99,0.068961684
926,0.067834274
926.01,0.06675038
926.02,0.065773403
926.03,0.064966744
926.04,0.064393804
926.05,0.064096199
926.06,0.064027803
926.07,0.06412041
926.08,0.064305812
926.09,0.064515801
926.1,0.06468217
926.11,0.06473671
926.12,0.064611215
926.13,0.064238256
926.14,0.063598074
926.15,0.062745273
926.16,0.061740914
926.17,0.060646057
926.18,0.059521763
926.19,0.058429092
926.2,0.057429104
926.21,0.056582858
926.22,0.055947087
926.23,0.055527703
926.24,0.055297604
926.25,0.055229124
926.26,0.055294602
926.27,0.055466371
926.28,0.055716769
926.29,0.056018132
926.3,0.056342795
926.31,0.056663603
926.32,0.05695545
926.33,0.057193747
926.34,0.057353904
926.35,0.057411333
926.36,0.057341444
926.37,0.057119648
926.38,0.056721356
926.39,0.056122437
926.4,0.055326915
926.41,0.054382799
926.42,0.053341925
926.43,0.052256129
926.44,0.051177247
926.45,0.050157115
926.46,0.049247568
926.47,0.048500443
926.48,0.047963378
926.49,0.047634655
926.5,0.047480435
926.51,0.047466334
926.52,0.047557967
926.53,0.047720948
926.54,0.047920892
926.55,0.048123415
926.56,0.048294131
926.57,0.048406228
926.58,0.048463498
926.59,0.04847746
926.6,0.048459634
926.61,0.048421539
926.62,0.048374695
926.63,0.048330622
926.64,0.04830084
926.65,0.048296729
926.66,0.048321128
926.67,0.048363509
926.68,0.048412178
926.69,0.048455441
926.7,0.048481604
926.71,0.048478973
926.72,0.048435854
926.73,0.048340555
926.74,0.04818366
926.75,0.047982619
926.76,0.047772386
926.77,0.047588219
926.78,0.047465371
926.79,0.047439099
926.8,0.047544658
926.81,0.047817303
926.82,0.048292289
926.83,0.048989984
926.84,0.049870491
926.85,0.050878665
926.86,0.051959365
926.87,0.053057447
926.88,0.054117768
926.89,0.055085185
926.9,0.055904554
926.91,0.056521281
926.92,0.056914623
926.93,0.057116894
926.94,0.057165042
926.95,0.057096016
926.96,0.056946762
926.97,0.056754229
926.98,0.056555364
926.99,0.056387115
927,0.056283746
927.01,0.056247832
927.02,0.056261266
927.03,0.056305585
927.04,0.056362326
927.05,0.056413024
927.06,0.056439219
927.07,0.056422445
927.08,0.05634424
927.09,0.056195245
927.1,0.05600301
927.11,0.05580444
927.12,0.05563644
927.13,0.055535915
927.14,0.055539769
927.15,0.055684907
927.16,0.056008233
927.17,0.05654611
927.18,0.057301158
927.19,0.058223041
927.2,0.059256787
927.21,0.060347425
927.22,0.061439984
927.23,0.062479493
927.24,0.063410982
927.25,0.064179477
927.26,0.064734337
927.27,0.065076122
927.28,0.065238866
927.29,0.065257178
927.3,0.065165668
927.31,0.064998949
927.32,0.064791629
927.33,0.064578319
927.34,0.064393629
927.35,0.064264965
927.36,0.064190469
927.37,0.064160856
927.38,0.06416684
927.39,0.064199135
927.4,0.064248456
927.41,0.064305517
927.42,0.064361033
927.43,0.064405786
927.44,0.064434898
927.45,0.064450301
927.46,0.06445453
927.47,0.064450115
927.48,0.064439589
927.49,0.064425484
927.5,0.064410333
927.51,0.064396667
927.52,0.064386857
927.53,0.064381343
927.54,0.064379304
927.55,0.064379896
927.56,0.064382278
927.57,0.064385604
927.58,0.064389032
927.59,0.064391719
927.6,0.064392822
927.61,0.064391772
927.62,0.064389126
927.63,0.064385725
927.64,0.064382408
927.65,0.064380017
927.66,0.064379393
927.67,0.064381377
927.68,0.064386808
927.69,0.06439651
927.7,0.06441007
927.71,0.064425139
927.72,0.064439198
927.73,0.064449726
927.74,0.064454204
927.75,0.064450111
927.76,0.064434927
927.77,0.064406133
927.78,0.064361774
927.79,0.064306609
927.8,0.064249801
927.81,0.06420059
927.82,0.064168214
927.83,0.064161912
927.84,0.064190923
927.85,0.064264487
927.86,0.064391843
927.87,0.064575085
927.88,0.064787192
927.89,0.064993729
927.9,0.065160259
927.91,0.065252346
927.92,0.065235554
927.93,0.065075445
927.94,0.064737585
927.95,0.064188053
927.96,0.063425424
927.97,0.06249951
927.98,0.061464632
927.99,0.060375111
928,0.059285269
928.01,0.058249427
928.02,0.057321907
928.03,0.056557031
928.04,0.056004863
928.05,0.055664784
928.06,0.055502896
928.07,0.055484717
928.08,0.055575768
928.09,0.055741567
928.1,0.055947635
928.11,0.056159491
928.12,0.056342654
928.13,0.056469812
928.14,0.056542916
928.15,0.05657138
928.16,0.05656462
928.17,0.056532052
928.18,0.056483092
928.19,0.056427154
928.2,0.056373654
928.21,0.056331935
928.22,0.056306732
928.23,0.056295506
928.24,0.056295074
928.25,0.056302255
928.26,0.056313868
928.27,0.056326729
928.28,0.056337658
928.29,0.056343473
928.3,0.056341302
928.31,0.056331979
928.32,0.056318772
928.33,0.056304992
928.34,0.056293951
928.35,0.056288961
928.36,0.056293333
928.37,0.056310379
928.38,0.056343409
928.39,0.056393556
928.4,0.056453032
928.41,0.056511776
928.42,0.056559721
928.43,0.056586805
928.44,0.056582962
928.45,0.05653813
928.46,0.056442243
928.47,0.056285508
928.48,0.056075308
928.49,0.055846186
928.5,0.055635087
928.51,0.055478956
928.52,0.055414738
928.53,0.055479379
928.54,0.055709824
928.55,0.056143017
928.56,0.056811113
928.57,0.057688974
928.58,0.058713735
928.59,0.059821862
928.6,0.060949825
928.61,0.062034092
928.62,0.063011131
928.63,0.063817412
928.64,0.064389401
928.65,0.064685105
928.66,0.064750753
928.67,0.064655155
928.68,0.064467123
928.69,0.06425547
928.7,0.064089007
928.71,0.064036547
928.72,0.064166901
928.73,0.064548123
928.74,0.065200034
928.75,0.066066053
928.76,0.067082834
928.77,0.06818703
928.78,0.069315294
928.79,0.07040428
928.8,0.071390641
928.81,0.072211029
928.82,0.072806833
928.83,0.073176176
928.84,0.073354604
928.85,0.07337832
928.86,0.073283533
928.87,0.073106447
928.88,0.072883269
928.89,0.072650205
928.9,0.072443461
928.91,0.072292175
928.92,0.072196492
928.93,0.072149117
928.94,0.07214276
928.95,0.072170126
928.96,0.072223924
928.97,0.072296862
928.98,0.072381645
928.99,0.072470984
929,0.072557681
929.01,0.072634686
929.02,0.072694965
929.03,0.072731482
929.04,0.0727372
929.05,0.072705085
929.06,0.0726281
929.07,0.07249921
929.08,0.072313394
929.09,0.072089823
929.1,0.071863648
929.11,0.071670306
929.12,0.071545232
929.13,0.07152386
929.14,0.071641627
929.15,0.071933968
929.16,0.072436317
929.17,0.073168548
929.18,0.07408657
929.19,0.075129861
929.2,0.076237901
929.21,0.077350168
929.22,0.078406142
929.23,0.079345301
929.24,0.080107125
929.25,0.080631766
929.26,0.080902647
929.27,0.080971933
929.28,0.080897904
929.29,0.080738841
929.3,0.080553022
929.31,0.080398727
929.32,0.080334235
929.33,0.080417827
929.34,0.080703878
929.35,0.081199789
929.36,0.081881887
929.37,0.082725943
929.38,0.083707729
929.39,0.084803018
929.4,0.08598758
929.41,0.087237189
929.42,0.088527616
929.43,0.089832799
929.44,0.091119129
929.45,0.092351054
929.46,0.093493021
929.47,0.094509478
929.48,0.095364874
929.49,0.096023657
929.5,0.096450273
929.51,0.096609894
929.52,0.096514187
929.53,0.096248812
929.54,0.09590602
929.55,0.095578062
929.56,0.095357191
929.57,0.095335658
929.58,0.095605715
929.59,0.096259613
929.6,0.097380016
929.61,0.098933987
929.62,0.100811995
929.63,0.10290314
929.64,0.10509652
929.65,0.107281235
929.66,0.109346385
929.67,0.111181069
929.68,0.112674386
929.69,0.113742188
929.7,0.114410651
929.71,0.114734388
929.72,0.114768011
929.73,0.114566132
929.74,0.114183365
929.75,0.11367432
929.76,0.113093611
929.77,0.112495773
929.78,0.111930327
929.79,0.111438807
929.8,0.111062034
929.81,0.110840829
929.82,0.110816013
929.83,0.111028405
929.84,0.111518828
929.85,0.1123281
929.86,0.113491849
929.87,0.114982941
929.88,0.116732599
929.89,0.118671297
929.9,0.120729509
929.91,0.12283771
929.92,0.124926375
929.93,0.126925978
929.94,0.128766993
929.95,0.130393489
929.96,0.131805695
929.97,0.133018339
929.98,0.134046148
929.99,0.13490385
930,0.135606172
930.01,0.136167842
930.02,0.136603588
930.03,0.136928115
930.04,0.137154633
930.05,0.137293972
930.06,0.137356745
930.07,0.137353569
930.08,0.137295057
930.09,0.137191825
930.1,0.137054488
930.11,0.136893661
930.12,0.136720258
930.13,0.136548822
930.14,0.136396307
930.15,0.136279709
930.16,0.136216027
930.17,0.136222258
930.18,0.136315398
930.19,0.136512446
930.2,0.136830397
930.21,0.137282801
930.22,0.137868929
930.23,0.138584362
930.24,0.13942468
930.25,0.140385465
930.26,0.141462297
930.27,0.142650757
930.28,0.143946425
930.29,0.145344911
930.3,0.146843673
930.31,0.148443126
930.32,0.15014395
930.33,0.151946825
930.34,0.153852431
930.35,0.155861447
930.36,0.157974554
930.37,0.160192431
930.38,0.162512333
930.39,0.164889941
930.4,0.167253272
930.41,0.169529842
930.42,0.171647164
930.43,0.173532755
930.44,0.175114128
930.45,0.1763188
930.46,0.177074284
930.47,0.177342409
930.48,0.17722722
930.49,0.176869609
930.5,0.176410467
930.51,0.175990684
930.52,0.17575115
930.53,0.175832758
930.54,0.176376397
930.55,0.177521516
930.56,0.179312976
930.57,0.181644226
930.58,0.184395111
930.59,0.187445476
930.6,0.190675167
930.61,0.193964029
930.62,0.197191907
930.63,0.200238646
930.64,0.202991713
930.65,0.20543122
930.66,0.207599033
930.67,0.209538144
930.68,0.21129154
930.69,0.212902211
930.7,0.214413148
930.71,0.215867339
930.72,0.217307774
930.73,0.218774133
930.74,0.220292364
930.75,0.221884848
930.76,0.223573965
930.77,0.225382098
930.78,0.227331628
930.79,0.229444936
930.8,0.231744405
930.81,0.234251971
930.82,0.236960359
930.83,0.239815453
930.84,0.242758923
930.85,0.245732438
930.86,0.248677666
930.87,0.251536278
930.88,0.254249943
930.89,0.256760328
930.9,0.259014737
930.91,0.261029096
930.92,0.26286514
930.93,0.264585444
930.94,0.266252579
930.95,0.267929118
930.96,0.269677634
930.97,0.271560699
930.98,0.273640886
930.99,0.275963755
931,0.278504107
931.01,0.281218354
931.02,0.284062903
931.03,0.286994166
931.04,0.289968551
931.05,0.292942468
931.06,0.295872328
931.07,0.298714577
931.08,0.301428199
931.09,0.303976245
931.1,0.306322136
931.11,0.30842929
931.12,0.310261128
931.13,0.311781067
931.14,0.312952529
931.15,0.313738931
931.16,0.314110771
931.17,0.314124952
931.18,0.313896143
931.19,0.313540073
931.2,0.313172469
931.21,0.312909061
931.22,0.312865576
931.23,0.313157742
931.24,0.313901288
931.25,0.315172695
931.26,0.316884944
931.27,0.31890844
931.28,0.32111359
931.29,0.3233708
931.3,0.325550478
931.31,0.327523029
931.32,0.329158861
931.33,0.330329661
931.34,0.33099218
931.35,0.331239962
931.36,0.331178913
931.37,0.330914941
931.38,0.330553953
931.39,0.330201855
931.4,0.329964555
931.41,0.32994796
931.42,0.330249755
931.43,0.330867044
931.44,0.331729585
931.45,0.332765897
931.46,0.3339045
931.47,0.335073913
931.48,0.336202656
931.49,0.337219248
931.5,0.338052208
931.51,0.338646525
931.52,0.339015919
931.53,0.339192037
931.54,0.339206524
931.55,0.339091026
931.56,0.33887719
931.57,0.338596661
931.58,0.338281087
931.59,0.337962045
931.6,0.337666578
931.61,0.33741443
931.62,0.337224682
931.63,0.337116412
931.64,0.337108704
931.65,0.337220636
931.66,0.33747129
931.67,0.337879748
931.68,0.338462644
931.69,0.339206657
931.7,0.340078373
931.71,0.341044008
931.72,0.342069777
931.73,0.343121895
931.74,0.344166579
931.75,0.345170044
931.76,0.346098506
931.77,0.346930242
931.78,0.347693951
931.79,0.348431505
931.8,0.349184776
931.81,0.349995636
931.82,0.350905959
931.83,0.351957615
931.84,0.353192477
931.85,0.354651871
931.86,0.356340578
931.87,0.358204426
931.88,0.360183897
931.89,0.36221947
931.9,0.364251627
931.91,0.366220847
931.92,0.368067612
931.93,0.369732401
931.94,0.371160645
931.95,0.372358584
931.96,0.373373299
931.97,0.374252626
931.98,0.375044403
931.99,0.375796466
932,0.376556652
932.01,0.377372798
932.02,0.378292741
932.03,0.379359338
932.04,0.380594587
932.05,0.38201503
932.06,0.383637208
932.07,0.385477663
932.08,0.387552935
932.09,0.389879567
932.1,0.392474099
932.11,0.395352771
932.12,0.39851153
932.13,0.401913537
932.14,0.405518978
932.15,0.409288033
932.16,0.413180886
932.17,0.417157718
932.18,0.421178714
932.19,0.425204054
932.2,0.429198906
932.21,0.433189783
932.22,0.437244461
932.23,0.441431483
932.24,0.445819393
932.25,0.450476736
932.26,0.455472055
932.27,0.460873893
932.28,0.466750794
932.29,0.473134964
932.3,0.479906187
932.31,0.486904289
932.32,0.493969098
932.33,0.500940441
932.34,0.507658146
932.35,0.513962039
932.36,0.519691948
932.37,0.52469002
932.38,0.528955079
932.39,0.532739439
932.4,0.536318506
932.41,0.539967692
932.42,0.543962403
932.43,0.548578051
932.44,0.554090042
932.45,0.560773786
932.46,0.568872695
932.47,0.578235456
932.48,0.588444864
932.49,0.599078749
932.5,0.60971494
932.51,0.619931268
932.52,0.629305561
932.53,0.637415651
932.54,0.643839367
932.55,0.648316224
932.56,0.651265074
932.57,0.653283158
932.58,0.654967715
932.59,0.656915986
932.6,0.659725212
932.61,0.663992633
932.62,0.670315491
932.63,0.679284516
932.64,0.691048938
932.65,0.705042604
932.66,0.720634046
932.67,0.737191796
932.68,0.754084384
932.69,0.770680343
932.7,0.786348204
932.71,0.8004565
932.72,0.812419613
932.73,0.822218741
932.74,0.83021747
932.75,0.836786555
932.76,0.84229675
932.77,0.847118812
932.78,0.851623493
932.79,0.85618155
932.8,0.861163737
932.81,0.866864735
932.82,0.873259058
932.83,0.880237001
932.84,0.88768886
932.85,0.895504932
932.86,0.903575512
932.87,0.911790896
932.88,0.920041379
932.89,0.928217804
932.9,0.936248192
932.91,0.944120901
932.92,0.951829807
932.93,0.959368788
932.94,0.96673172
932.95,0.973912482
932.96,0.980904951
932.97,0.987703002
932.98,0.994303533
932.99,1.000740819
933,1.007074397
933.01,1.013364278
933.02,1.019670472
933.03,1.026052991
933.04,1.032571844
933.05,1.039287043
933.06,1.046258599
933.07,1.053523514
933.08,1.061021796
933.09,1.068667892
933.1,1.076376252
933.11,1.084061325
933.12,1.091637559
933.13,1.099019405
933.14,1.10612131
933.15,1.112858485
933.16,1.1191982
933.17,1.125192339
933.18,1.13090054
933.19,1.136382443
933.2,1.141697688
933.21,1.146905914
933.22,1.15206676
933.23,1.157239865
933.24,1.162478568
933.25,1.167757979
933.26,1.173000276
933.27,1.178126638
933.28,1.183058244
933.29,1.18771627
933.3,1.192021896
933.31,1.1958963
933.32,1.199260659
933.33,1.202065518
933.34,1.204385424
933.35,1.206327656
933.36,1.207999493
933.37,1.209508212
933.38,1.210961093
933.39,1.212465413
933.4,1.21412845
933.41,1.216057033
933.42,1.21832695
933.43,1.220963474
933.44,1.223987237
933.45,1.22741887
933.46,1.231279005
933.47,1.235588273
933.48,1.240367307
933.49,1.245636737
933.5,1.251407644
933.51,1.257572277
933.52,1.263942358
933.53,1.270328082
933.54,1.276539645
933.55,1.28238724
933.56,1.287681065
933.57,1.292231312
933.58,1.295848178
933.59,1.298417982
933.6,1.300149069
933.61,1.301334919
933.62,1.302269012
933.63,1.303244829
933.64,1.304555849
933.65,1.306495553
933.66,1.309357421
933.67,1.313431772
933.68,1.318790678
933.69,1.325150431
933.7,1.332194576
933.71,1.339606659
933.72,1.347070225
933.73,1.354268821
933.74,1.360885992
933.75,1.366605284
933.76,1.371141721
933.77,1.374602757
933.78,1.37736218
933.79,1.379798851
933.8,1.382291629
933.81,1.385219375
933.82,1.388960947
933.83,1.393895206
933.84,1.400401012
933.85,1.408749098
933.86,1.41875203
933.87,1.430101041
933.88,1.442487362
933.89,1.455602224
933.9,1.469136858
933.91,1.482782494
933.92,1.496230365
933.93,1.509173501
933.94,1.521429663
933.95,1.533020254
933.96,1.543985459
933.97,1.554365461
933.98,1.564200445
933.99,1.573530596
934,1.582396098
934.01,1.590837134
934.02,1.59891216
934.03,1.606907853
934.04,1.615266019
934.05,1.624431428
934.06,1.634848851
934.07,1.646963057
934.08,1.661218818
934.09,1.678060904
934.1,1.697934084
934.11,1.721044186
934.12,1.746582836
934.13,1.773472615
934.14,1.800636106
934.15,1.82699589
934.16,1.851474547
934.17,1.872994659
934.18,1.890478807
934.19,1.902864902
934.2,1.910158046
934.21,1.914108361
934.22,1.91662722
934.23,1.919626001
934.24,1.925016077
934.25,1.934708824
934.26,1.950615618
934.27,1.974647835
934.28,2.008535417
934.29,2.051737114
934.3,2.102165577
934.31,2.157703804
934.32,2.216234791
934.33,2.275641536
934.34,2.333807035
934.35,2.388614285
934.36,2.437946284
934.37,2.480245953
934.38,2.516336878
934.39,2.54767524
934.4,2.575717227
934.41,2.601919025
934.42,2.627736822
934.43,2.654626804
934.44,2.684045159
934.45,2.717436715
934.46,2.755452064
934.47,2.797441134
934.48,2.842633418
934.49,2.89025841
934.5,2.939545604
934.51,2.989724492
934.52,3.040024568
934.53,3.089675326
934.54,3.137939723
934.55,3.184500515
934.56,3.229326659
934.57,3.272392625
934.58,3.31367288
934.59,3.353141893
934.6,3.390774134
934.61,3.426544069
934.62,3.460426168
934.63,3.492520934
934.64,3.523465645
934.65,3.554040457
934.66,3.585025525
934.67,3.617201004
934.68,3.651347051
934.69,3.688243822
934.7,3.728671472
934.71,3.773402916
934.72,3.822702558
934.73,3.876000779
934.74,3.932650582
934.75,3.99200497
934.76,4.053416944
934.77,4.116239506
934.78,4.179825659
934.79,4.243528404
934.8,4.306724312
934.81,4.369086219
934.82,4.43048925
934.83,4.49081244
934.84,4.549934823
934.85,4.607735434
934.86,4.664093307
934.87,4.718887477
934.88,4.771996977
934.89,4.823299389
934.9,4.872666087
934.91,4.919966793
934.92,4.965071225
934.93,5.007849106
934.94,5.048170156
934.95,5.085904096
934.96,5.120920646
934.97,5.153093425
934.98,5.182570961
934.99,5.209953357
935,5.235882696
935.01,5.26100106
935.02,5.285950532
935.03,5.311373195
935.04,5.337911131
935.05,5.366206424
935.06,5.396853024
935.07,5.429838536
935.08,5.464735938
935.09,5.501110164
935.1,5.538526148
935.11,5.576548824
935.12,5.614743127
935.13,5.652673991
935.14,5.689906349
935.15,5.726082249
935.16,5.761173273
935.17,5.795239016
935.18,5.828339075
935.19,5.860533045
935.2,5.891880521
935.21,5.922441099
935.22,5.952274375
935.23,5.981439514
935.24,6.009965297
935.25,6.037830508
935.26,6.065009278
935.27,6.091475736
935.28,6.117204012
935.29,6.142168234
935.3,6.166342533
935.31,6.189701038
935.32,6.212211069
935.33,6.233753978
935.34,6.254152244
935.35,6.2732272
935.36,6.290800178
935.37,6.306692511
935.38,6.32072553
935.39,6.332720569
935.4,6.34249896
935.41,6.349951616
935.42,6.355267309
935.43,6.358714493
935.44,6.360561627
935.45,6.361077165
935.46,6.360529565
935.47,6.359187283
935.48,6.357318776
935.49,6.355190429
935.5,6.352921217
935.51,6.350387242
935.52,6.347441935
935.53,6.343938728
935.54,6.339731054
935.55,6.334672345
935.56,6.328616031
935.57,6.321415546
935.58,6.312944663
935.59,6.303334501
935.6,6.292892679
935.61,6.281930271
935.62,6.270758347
935.63,6.259687978
935.64,6.249030238
935.65,6.239096197
935.66,6.230196927
935.67,6.222555605
935.68,6.21601852
935.69,6.210330963
935.7,6.205238223
935.71,6.20048559
935.72,6.195818352
935.73,6.190981798
935.74,6.185721219
935.75,6.179783208
935.76,6.173007685
935.77,6.165388563
935.78,6.156934159
935.79,6.147652788
935.8,6.137552767
935.81,6.126642411
935.82,6.114930038
935.83,6.102423963
935.84,6.089123157
935.85,6.074908126
935.86,6.059578001
935.87,6.042930314
935.88,6.0247626
935.89,6.004872392
935.9,5.983057226
935.91,5.959114633
935.92,5.932842149
935.93,5.904189722
935.94,5.87376197
935.95,5.842339242
935.96,5.810701891
935.97,5.77963027
935.98,5.749904733
935.99,5.722305632
936,5.697613319
936.01,5.676599198
936.02,5.659392127
936.03,5.645059082
936.04,5.632567529
