# # comment:                                                     FEFF 9.9.1  
# # Source:
# # Structure
# # Reduced
# # space
# # abc:
# # angles:
# # sites:
# # POT  SCF 100  7.0000   0, NO core-hole, AFOLP (folp(0)= 1.150)
# # Abs   Z=29 Rmt= 1.366 Rnm= 1.403 L3 shell
# # Pot 1 Z=29 Rmt= 1.366 Rnm= 1.403
# # Gam_ch=5.960E-01 H-L exch Vi= 0.000E+00 Vr= 0.000E+00
# # Mu=-7.858E+00eV kf=1.988E+00 Vint=-1.645E+01eV Rs_int= 1.824
# FMS rfms= 9.0000
# # PATH  Rmax=-1.000,  Keep_limit= 0.00, Heap_limit 0.00  Pwcrit= 2.50%
#  S02=0.985  Temp=   0.00  Debye_temp=   0.00  Global_sig2= 0.00000
#  Energy zero shift, vr, vi    0.00000E+00   0.00000E+00
#  Curved wave amplitude ratio filter   4.000%
#     file         sig2 tot  cw amp ratio   deg  nlegs   reff  inp sig2
#     0/   0 paths used
#  xsedge+ 50, used to normalize mu           6.7454E-03
#  -----------------------------------------------------------------------
#  omega    e    k    mu    mu0     chi     @#
     933.598    -10.297  -0.800  6.13182E-02  6.35361E-02 -2.21788E-03
     934.062     -9.833  -0.720  7.71699E-02  7.98424E-02 -2.67257E-03
     934.476     -9.419  -0.640  1.00197E-01  1.03153E-01 -2.95618E-03
     934.842     -9.053  -0.560  1.34953E-01  1.37666E-01 -2.71246E-03
     935.159     -8.736  -0.480  1.89553E-01  1.90713E-01 -1.15985E-03
     935.427     -8.468  -0.400  2.78266E-01  2.74962E-01  3.30386E-03
     935.647     -8.249  -0.320  4.22736E-01  4.09319E-01  1.34169E-02
     935.817     -8.078  -0.240  6.37454E-01  6.06031E-01  3.14231E-02
     935.837     -8.058  -0.229  6.70851E-01  6.36483E-01  3.43680E-02
     935.937     -7.958  -0.162  8.75571E-01  8.23048E-01  5.25229E-02
     936.037     -7.858   0.000  1.12089E+00  1.04782E+00  7.30633E-02
     936.137     -7.758   0.162  1.34902E+00  1.26340E+00  8.56131E-02
     936.237     -7.658   0.229  1.51629E+00  1.43137E+00  8.49132E-02
     936.337     -7.558   0.281  1.61176E+00  1.54273E+00  6.90268E-02
     936.437     -7.458   0.324  1.65068E+00  1.60965E+00  4.10343E-02
     936.530     -7.365   0.360  1.65250E+00  1.64518E+00  7.32153E-03
     936.646     -7.249   0.400  1.62533E+00  1.66500E+00 -3.96644E-02
     936.774     -7.121   0.440  1.57431E+00  1.66806E+00 -9.37492E-02
     936.914     -6.981   0.480  1.50697E+00  1.65805E+00 -1.51081E-01
     937.067     -6.828   0.520  1.43048E+00  1.63830E+00 -2.07824E-01
     937.231     -6.664   0.560  1.35082E+00  1.61173E+00 -2.60909E-01
     937.408     -6.487   0.600  1.27196E+00  1.58038E+00 -3.08423E-01
     937.597     -6.298   0.640  1.19653E+00  1.54602E+00 -3.49490E-01
     937.798     -6.097   0.680  1.12654E+00  1.51007E+00 -3.83536E-01
     938.012     -5.883   0.720  1.06367E+00  1.47344E+00 -4.09763E-01
     938.237     -5.658   0.760  1.00999E+00  1.43694E+00 -4.26944E-01
     938.475     -5.420   0.800  9.67812E-01  1.40118E+00 -4.33372E-01
     938.725     -5.170   0.840  9.39693E-01  1.36654E+00 -4.26844E-01
     938.987     -4.908   0.880  9.29241E-01  1.33328E+00 -4.04041E-01
     939.261     -4.634   0.920  9.43051E-01  1.30165E+00 -3.58596E-01
     939.548     -4.347   0.960  9.94403E-01  1.27172E+00 -2.77313E-01
     939.847     -4.048   1.000  1.10663E+00  1.24365E+00 -1.37023E-01
     940.158     -3.738   1.040  1.29352E+00  1.21732E+00  7.61921E-02
     940.481     -3.414   1.080  1.47753E+00  1.19287E+00  2.84657E-01
     940.816     -3.079   1.120  1.49787E+00  1.17020E+00  3.27662E-01
     941.163     -2.732   1.160  1.36446E+00  1.14926E+00  2.15202E-01
     941.523     -2.372   1.200  1.20543E+00  1.12998E+00  7.54542E-02
     941.895     -2.000   1.240  1.07405E+00  1.11228E+00 -3.82255E-02
     942.279     -1.616   1.280  9.83929E-01  1.09615E+00 -1.12220E-01
     942.675     -1.220   1.320  9.48400E-01  1.08148E+00 -1.33079E-01
     943.084     -0.811   1.360  9.78892E-01  1.06818E+00 -8.92839E-02
     943.504     -0.391   1.400  1.07605E+00  1.05620E+00  1.98475E-02
     943.937      0.042   1.440  1.20160E+00  1.04545E+00  1.56155E-01
     944.382      0.487   1.480  1.28329E+00  1.03582E+00  2.47476E-01
     944.839      0.944   1.520  1.29965E+00  1.02731E+00  2.72338E-01
     945.309      1.414   1.560  1.26283E+00  1.01983E+00  2.43004E-01
     945.790      1.895   1.600  1.18717E+00  1.01331E+00  1.73851E-01
     946.284      2.389   1.640  1.10103E+00  1.00769E+00  9.33410E-02
     946.790      2.895   1.680  1.02638E+00  1.00289E+00  2.34912E-02
     947.308      3.413   1.720  9.73104E-01  9.98869E-01 -2.57650E-02
     947.838      3.943   1.760  9.44739E-01  9.95597E-01 -5.08577E-02
     948.381      4.486   1.800  9.34754E-01  9.92995E-01 -5.82404E-02
     948.936      5.041   1.840  9.28084E-01  9.91000E-01 -6.29155E-02
     949.503      5.608   1.880  9.15634E-01  9.89580E-01 -7.39454E-02
     950.082      6.187   1.920  8.97591E-01  9.88692E-01 -9.11005E-02
     950.673      6.778   1.960  8.77266E-01  9.88281E-01 -1.11016E-01
     951.277      7.382   2.000  8.59024E-01  9.88316E-01 -1.29293E-01
     951.892      7.997   2.040  8.44957E-01  9.88738E-01 -1.43782E-01
     952.520      8.625   2.080  8.35668E-01  9.89513E-01 -1.53845E-01
     953.160      9.265   2.120  8.40223E-01  9.90607E-01 -1.50384E-01
     953.813      9.917   2.160  8.76234E-01  9.91972E-01 -1.15738E-01
     954.477     10.582   2.200  9.42982E-01  9.93560E-01 -5.05784E-02
     955.154     11.259   2.240  9.98960E-01  9.95355E-01  3.60536E-03
     955.842     11.947   2.280  1.00330E+00  9.97311E-01  5.98442E-03
     956.544     12.648   2.320  9.51251E-01  9.99389E-01 -4.81384E-02
     957.257     13.362   2.360  8.71091E-01  1.00155E+00 -1.30460E-01
     957.982     14.087   2.400  8.10039E-01  1.00378E+00 -1.93741E-01
     958.720     14.825   2.440  8.01943E-01  1.00602E+00 -2.04075E-01
     959.470     15.575   2.480  8.31919E-01  1.00826E+00 -1.76340E-01
     960.232     16.337   2.520  8.82774E-01  1.01047E+00 -1.27691E-01
     961.006     17.111   2.560  9.39707E-01  1.01261E+00 -7.29066E-02
     961.792     17.897   2.600  9.90150E-01  1.01467E+00 -2.45238E-02
     962.591     18.696   2.640  1.02783E+00  1.01662E+00  1.12111E-02
     963.401     19.506   2.680  1.05147E+00  1.01842E+00  3.30496E-02
     964.224     20.329   2.720  1.06400E+00  1.02006E+00  4.39335E-02
     965.060     21.165   2.760  1.06912E+00  1.02154E+00  4.75847E-02
     965.907     22.012   2.800  1.07056E+00  1.02282E+00  4.77414E-02
     966.766     22.871   2.840  1.07030E+00  1.02390E+00  4.64017E-02
     967.638     23.743   2.880  1.06960E+00  1.02476E+00  4.48445E-02
     968.522     24.627   2.920  1.06971E+00  1.02538E+00  4.43377E-02
     969.418     25.523   2.960  1.07160E+00  1.02577E+00  4.58357E-02
     970.327     26.431   3.000  1.07445E+00  1.02592E+00  4.85378E-02
     971.247     27.352   3.040  1.07609E+00  1.02582E+00  5.02765E-02
     972.180     28.285   3.080  1.07461E+00  1.02546E+00  4.91538E-02
     973.125     29.230   3.120  1.06964E+00  1.02485E+00  4.47944E-02
     974.082     30.187   3.160  1.06211E+00  1.02400E+00  3.81004E-02
     975.051     31.156   3.200  1.05296E+00  1.02290E+00  3.00570E-02
     976.032     32.137   3.240  1.04339E+00  1.02157E+00  2.18233E-02
     977.026     33.131   3.280  1.03381E+00  1.01999E+00  1.38202E-02
     978.032     34.137   3.320  1.02439E+00  1.01820E+00  6.19560E-03
     979.050     35.155   3.360  1.01561E+00  1.01619E+00 -5.77931E-04
     980.080     36.185   3.400  1.00864E+00  1.01397E+00 -5.33036E-03
     981.122     37.227   3.440  1.00485E+00  1.01157E+00 -6.71898E-03
     982.177     38.282   3.480  1.00545E+00  1.00899E+00 -3.53968E-03
     983.244     39.349   3.520  1.01097E+00  1.00623E+00  4.73344E-03
     984.323     40.428   3.560  1.02097E+00  1.00334E+00  1.76283E-02
     985.414     41.519   3.600  1.03396E+00  1.00032E+00  3.36440E-02
     986.517     42.622   3.640  1.04760E+00  9.97206E-01  5.03971E-02
     987.633     43.738   3.680  1.05904E+00  9.94080E-01  6.49581E-02
     988.761     44.866   3.720  1.06464E+00  9.91176E-01  7.34597E-02
