Energy (eV),Intensity
925.4,3.066708156
925.41,3.066708173
925.42,3.066708189
925.43,3.066708203
925.44,3.06670821
925.45,3.066708209
925.46,3.066708196
925.47,3.066708169
925.48,3.066083207
925.49,3.063792477
925.5,3.061012802
925.51,3.057907099
925.52,3.054638287
925.53,3.051369283
925.54,3.048263004
925.55,3.045482368
925.56,3.043190294
925.57,3.041016451
925.58,3.038132714
925.59,3.034741875
925.6,3.031034009
925.61,3.027199191
925.62,3.023427495
925.63,3.019908995
925.64,3.016833767
925.65,3.014391885
925.66,3.013762489
925.67,3.012972193
925.68,3.01206772
925.69,3.01109796
925.7,3.0101118
925.71,3.009158129
925.72,3.008285834
925.73,3.007543805
925.74,3.007144776
925.75,3.007144764
925.76,3.007144757
925.77,3.007144753
925.78,3.007144753
925.79,3.007144756
925.8,3.007144761
925.81,3.007144769
925.82,3.007144778
925.83,3.0073211
925.84,3.007650606
925.85,3.008038079
925.86,3.0084618
925.87,3.008900051
925.88,3.009331111
925.89,3.009733262
925.9,3.010084783
925.91,3.010363956
925.92,3.009668578
925.93,3.008790443
925.94,3.007785485
925.95,3.006708011
925.96,3.005612324
925.97,3.004552732
925.98,3.003583537
925.99,3.002759047
926,3.002232287
926.01,3.001926922
926.02,3.001556343
926.03,3.001142274
926.04,3.000706439
926.05,3.00027056
926.06,2.999856361
926.07,2.999485565
926.08,2.999179896
926.09,2.999756304
926.1,3.000991893
926.11,3.002444913
926.12,3.004033898
926.13,3.005677386
926.14,3.007293912
926.15,3.008802013
926.16,3.010120226
926.17,3.011167086
926.18,3.011756472
926.19,3.012497889
926.2,3.013346457
926.21,3.01425631
926.22,3.015181585
926.23,3.016076415
926.24,3.016894937
926.25,3.017591285
926.26,3.017862763
926.27,3.017481145
926.28,3.017017985
926.29,3.016500437
926.3,3.015955657
926.31,3.015410796
926.32,3.01489301
926.33,3.014429452
926.34,3.014047275
926.35,3.013746242
926.36,3.013380184
926.37,3.012949692
926.38,3.012478902
926.39,3.011991949
926.4,3.01151297
926.41,3.011066101
926.42,3.010675478
926.43,3.010365236
926.44,3.010364443
926.45,3.010364455
926.46,3.01036446
926.47,3.010364459
926.48,3.010364454
926.49,3.010364446
926.5,3.010364437
926.51,3.010364428
926.52,3.010364422
926.53,3.010364422
926.54,3.010364422
926.55,3.010364422
926.56,3.010364422
926.57,3.010364422
926.58,3.010364422
926.59,3.010364422
926.6,3.010364422
926.61,3.010364428
926.62,3.010364438
926.63,3.010364449
926.64,3.010364458
926.65,3.010364464
926.66,3.010364465
926.67,3.01036446
926.68,3.010364446
926.69,3.010364422
926.7,3.010711661
926.71,3.011150594
926.72,3.011652987
926.73,3.012191687
926.74,3.012739541
926.75,3.013269394
926.76,3.013754094
926.77,3.014166487
926.78,3.014388977
926.79,3.014388985
926.8,3.014388991
926.81,3.014388994
926.82,3.014388995
926.83,3.014388994
926.84,3.014388991
926.85,3.014388985
926.86,3.014388977
926.87,3.014169389
926.88,3.013757676
926.89,3.013273441
926.9,3.012743838
926.91,3.012196021
926.92,3.011657142
926.93,3.011154355
926.94,3.010714813
926.95,3.010365671
926.96,3.010364446
926.97,3.01036446
926.98,3.010364465
926.99,3.010364464
927,3.010364458
927.01,3.010364449
927.02,3.010364438
927.03,3.010364428
927.04,3.010364422
927.05,3.010364419
927.06,3.010364416
927.07,3.010364414
927.08,3.010364412
927.09,3.010364411
927.1,3.010364412
927.11,3.010364414
927.12,3.01036442
927.13,3.010583806
927.14,3.010995481
927.15,3.011479692
927.16,3.012009286
927.17,3.012557107
927.18,3.013096
927.19,3.01359881
927.2,3.014038381
927.21,3.014387559
927.22,3.014735741
927.23,3.015174576
927.24,3.01567691
927.25,3.016215588
927.26,3.016763454
927.27,3.017293352
927.28,3.017778126
927.29,3.018190622
927.3,3.018310684
927.31,3.017929277
927.32,3.017466269
927.33,3.016948814
927.34,3.016404064
927.35,3.015859175
927.36,3.015341299
927.37,3.014877589
927.38,3.014495199
927.39,3.014169804
927.4,3.013758194
927.41,3.013274034
927.42,3.012744476
927.43,3.012196671
927.44,3.01165777
927.45,3.011154924
927.46,3.010715285
927.47,3.010366004
927.48,3.01071101
927.49,3.011149826
927.5,3.01165214
927.51,3.0121908
927.52,3.012738655
927.53,3.013268553
927.54,3.013753342
927.55,3.01416587
927.56,3.014388975
927.57,3.014388978
927.58,3.014388978
927.59,3.014388976
927.6,3.014388974
927.61,3.014388971
927.62,3.014388969
927.63,3.014388969
927.64,3.014388972
927.65,3.014607949
927.66,3.015019537
927.67,3.015503692
927.68,3.01603326
927.69,3.016581081
927.7,3.017120001
927.71,3.017622861
927.72,3.018062505
927.73,3.018411777
927.74,3.019106177
927.75,3.019983678
927.76,3.02098823
927.77,3.022065526
927.78,3.023161258
927.79,3.024221117
927.8,3.025190795
927.81,3.026015984
927.82,3.026565102
927.83,3.026946417
927.84,3.027409357
927.85,3.027926769
927.86,3.0284715
927.87,3.029016399
927.88,3.029534313
927.89,3.029998091
927.9,3.03038058
927.91,3.030705941
927.92,3.031117464
927.93,3.031601567
927.94,3.032131098
927.95,3.032678904
927.96,3.033217832
927.97,3.033720728
927.98,3.03416044
927.99,3.034509815
928,3.034511705
928.01,3.034511688
928.02,3.03451168
928.03,3.034511679
928.04,3.034511683
928.05,3.034511693
928.06,3.034511705
928.07,3.03451172
928.08,3.034614012
928.09,3.03499526
928.1,3.035458153
928.11,3.035975537
928.12,3.03652026
928.13,3.03706517
928.14,3.037583113
928.15,3.038046937
928.16,3.038429491
928.17,3.038973387
928.18,3.039796331
928.19,3.040764469
928.2,3.041823495
928.21,3.042919103
928.22,3.043996986
928.23,3.045002837
928.24,3.045882351
928.25,3.04658122
928.26,3.04658534
928.27,3.046585315
928.28,3.046585307
928.29,3.046585311
928.3,3.046585325
928.31,3.046585343
928.32,3.046585361
928.33,3.046585377
928.34,3.046483289
928.35,3.046102089
928.36,3.04563923
928.37,3.045121863
928.38,3.044577144
928.39,3.044032225
928.4,3.043514261
928.41,3.043050404
928.42,3.042667808
928.43,3.042560829
928.44,3.042560824
928.45,3.042560822
928.46,3.042560822
928.47,3.042560823
928.48,3.042560825
928.49,3.042560828
928.5,3.042560831
928.51,3.042560833
928.52,3.042560826
928.53,3.042560818
928.54,3.042560809
928.55,3.042560803
928.56,3.042560799
928.57,3.0425608
928.58,3.042560806
928.59,3.042560819
928.6,3.042866555
928.61,3.044009986
928.62,3.045398442
928.63,3.046950463
928.64,3.048584592
928.65,3.050219368
928.66,3.051773333
928.67,3.053165027
928.68,3.054312993
928.69,3.055288911
928.7,3.056523041
928.71,3.057975051
928.72,3.059563482
928.73,3.061206876
928.74,3.062823773
928.75,3.064332715
928.76,3.065652241
928.77,3.066700894
928.78,3.066708071
928.79,3.06670803
928.8,3.066708013
928.81,3.066708016
928.82,3.066708034
928.83,3.066708061
928.84,3.066708093
928.85,3.066708124
928.86,3.066708141
928.87,3.066708141
928.88,3.066708141
928.89,3.066708141
928.9,3.066708141
928.91,3.066708141
928.92,3.066708141
928.93,3.066708141
928.94,3.066708141
928.95,3.066708141
928.96,3.066708141
928.97,3.066708141
928.98,3.066708141
928.99,3.066708141
929,3.066708141
929.01,3.066708141
929.02,3.066708141
929.03,3.066708141
929.04,3.066708139
929.05,3.066708136
929.06,3.066708133
929.07,3.066708131
929.08,3.06670813
929.09,3.06670813
929.1,3.066708132
929.11,3.066708137
929.12,3.066809674
929.13,3.067190707
929.14,3.067653446
929.15,3.068170737
929.16,3.068715429
929.17,3.069260369
929.18,3.069778404
929.19,3.070242381
929.2,3.070625149
929.21,3.071168155
929.22,3.071990729
929.23,3.072958622
929.24,3.074017522
929.25,3.07511312
929.26,3.076191107
929.27,3.077197172
929.28,3.078077005
929.29,3.078776297
929.3,3.079471722
929.31,3.08034868
929.32,3.081352883
929.33,3.082430021
929.34,3.083525785
929.35,3.084585867
929.36,3.085555957
929.37,3.086381747
929.38,3.087134941
929.39,3.088277898
929.4,3.089666013
929.41,3.091217828
929.42,3.092851885
929.43,3.094486725
929.44,3.09604089
929.45,3.097432923
929.46,3.098581366
929.47,3.099557127
929.48,3.100790838
929.49,3.102242569
929.5,3.103830857
929.51,3.105474238
929.52,3.107091252
929.53,3.108600434
929.54,3.109920323
929.55,3.110969457
929.56,3.111667663
929.57,3.112544523
929.58,3.113548666
929.59,3.114625781
929.6,3.115721558
929.61,3.116781684
929.62,3.117751849
929.63,3.118577741
929.64,3.119229631
929.65,3.119991496
929.66,3.120916828
929.67,3.121951323
929.68,3.123040676
929.69,3.124130582
929.7,3.125166737
929.71,3.126094837
929.72,3.126860576
929.73,3.127728367
929.74,3.128961939
929.75,3.130413578
929.76,3.13200182
929.77,3.1336452
929.78,3.135262255
929.79,3.136771519
929.8,3.138091527
929.81,3.139140816
929.82,3.140183614
929.83,3.141498797
929.84,3.143004938
929.85,3.144620573
929.86,3.146264237
929.87,3.147854465
929.88,3.149309794
929.89,3.150548758
929.9,3.151425669
929.91,3.152187426
929.92,3.153112678
929.93,3.154147122
929.94,3.155236454
929.95,3.156326372
929.96,3.157362572
929.97,3.158290751
929.98,3.159056605
929.99,3.160375077
930,3.162462406
930.01,3.164918854
930.02,3.167606557
930.03,3.170387651
930.04,3.173124272
930.05,3.175678556
930.06,3.17791264
930.07,3.179688658
930.08,3.181475798
930.09,3.183730166
930.1,3.18631197
930.11,3.189081557
930.12,3.191899276
930.13,3.194625473
930.14,3.197120497
930.15,3.199244695
930.16,3.200999823
930.17,3.20325548
930.18,3.205995437
930.19,3.209058866
930.2,3.212284941
930.21,3.215512834
930.22,3.218581717
930.23,3.221330765
930.24,3.223599149
930.25,3.225486969
930.26,3.227849193
930.27,3.230629266
930.28,3.233671144
930.29,3.236818786
930.3,3.239916149
930.31,3.242807192
930.32,3.245335871
930.33,3.247346146
930.34,3.251432157
930.35,3.256612219
930.36,3.262544855
930.37,3.268909155
930.38,3.27538421
930.39,3.281649112
930.4,3.287382951
930.41,3.29226482
930.42,3.296156194
930.43,3.300802407
930.44,3.306446502
930.45,3.312757159
930.46,3.319403057
930.47,3.326052875
930.48,3.332375293
930.49,3.338038989
930.5,3.342712643
930.51,3.344509168
930.52,3.345406051
930.53,3.346461604
930.54,3.347616583
930.55,3.348811744
930.56,3.349987844
930.57,3.351085639
930.58,3.352045884
930.59,3.352809336
930.6,3.353918567
930.61,3.355322416
930.62,3.356930297
930.63,3.358655231
930.64,3.360410242
930.65,3.362108348
930.66,3.363662573
930.67,3.364985937
930.68,3.366431599
930.69,3.369172738
930.7,3.372502811
930.71,3.376226321
930.72,3.380147768
930.73,3.384071655
930.74,3.387802482
930.75,3.391144751
930.76,3.393902965
930.77,3.39708972
930.78,3.401654154
930.79,3.407026548
930.8,3.412905328
930.81,3.418988919
930.82,3.424975749
930.83,3.430564243
930.84,3.435452828
930.85,3.43933993
930.86,3.442151382
930.87,3.445683767
930.88,3.44972977
930.89,3.454070493
930.9,3.45848704
930.91,3.462760514
930.92,3.466672019
930.93,3.470002659
930.94,3.472484481
930.95,3.474996876
930.96,3.478049216
930.97,3.481462296
930.98,3.485056909
930.99,3.488653848
931,3.492073906
931.01,3.495137878
931.02,3.497666556
931.03,3.499626331
931.04,3.501984832
931.05,3.504760941
931.06,3.507798811
931.07,3.510942595
931.08,3.514036448
931.09,3.516924523
931.1,3.519450974
931.11,3.521459955
931.12,3.523886218
931.13,3.526953455
931.14,3.530466788
931.15,3.534236138
931.16,3.538071424
931.17,3.541782567
931.18,3.545179486
931.19,3.548072103
931.2,3.550554661
931.21,3.553980154
931.22,3.558142086
931.23,3.562796081
931.24,3.567697763
931.25,3.572602757
931.26,3.577266687
931.27,3.581445177
931.28,3.584893851
931.29,3.586955705
931.3,3.58901025
931.31,3.59142869
931.32,3.594075246
931.33,3.596814143
931.34,3.599509603
931.35,3.60202585
931.36,3.604227106
931.37,3.605977595
931.38,3.608743439
931.39,3.612248531
931.4,3.616263557
931.41,3.620571285
931.42,3.624954482
931.43,3.629195915
931.44,3.633078351
931.45,3.636384559
931.46,3.638993262
931.47,3.642037727
931.48,3.645736922
931.49,3.649873625
931.5,3.654230614
931.51,3.658590666
931.52,3.662736558
931.53,3.666451068
931.54,3.669516972
931.55,3.67108928
931.56,3.672418517
931.57,3.673983258
931.58,3.675695654
931.59,3.677467855
931.6,3.679212009
931.61,3.680840267
931.62,3.682264778
931.63,3.683397693
931.64,3.684293284
931.65,3.685419775
931.66,3.686710226
931.67,3.688094813
931.68,3.689503708
931.69,3.690867087
931.7,3.692115123
931.71,3.693177991
931.72,3.694406022
931.73,3.696871256
931.74,3.699866845
931.75,3.703216871
931.76,3.706745414
931.77,3.710276553
931.78,3.71363437
931.79,3.716642943
931.8,3.719126355
931.81,3.722741662
931.82,3.728277639
931.83,3.73479485
931.84,3.741927355
931.85,3.749309213
931.86,3.756574484
931.87,3.763357229
931.88,3.769291507
931.89,3.77401138
931.9,3.777596004
931.91,3.782101567
931.92,3.787263134
931.93,3.79280139
931.94,3.798437024
931.95,3.803890722
931.96,3.80888317
931.97,3.813135056
931.98,3.816038596
931.99,3.818227108
932,3.820886567
932.01,3.823860783
932.02,3.826993566
932.03,3.830128726
932.04,3.833110072
932.05,3.835781415
932.06,3.837986564
932.07,3.839694392
932.08,3.84174814
932.09,3.844166019
932.1,3.846812259
932.11,3.849551088
932.12,3.852246738
932.13,3.854763438
932.14,3.856965419
932.15,3.858716909
932.16,3.859806001
932.17,3.86116948
932.18,3.862731559
932.19,3.864407703
932.2,3.866113374
932.21,3.867764038
932.22,3.869275159
932.23,3.870562201
932.24,3.871864203
932.25,3.874146552
932.26,3.876920232
932.27,3.880022327
932.28,3.883289919
932.29,3.886560094
932.3,3.889669934
932.31,3.892456524
932.32,3.894756948
932.33,3.896941274
932.34,3.899851941
932.35,3.903278839
932.36,3.907029517
932.37,3.910911527
932.38,3.914732418
932.39,3.918299741
932.4,3.921421046
932.41,3.923903883
932.42,3.927360361
932.43,3.931739972
932.44,3.936757621
932.45,3.942141765
932.46,3.947620861
932.47,3.952923366
932.48,3.957777737
932.49,3.961912431
932.5,3.964975954
932.51,3.968018709
932.52,3.971716682
932.53,3.975852649
932.54,3.980209387
932.55,3.984569675
932.56,3.988716289
932.57,3.992432007
932.58,3.995499605
932.59,3.996594587
932.6,3.997005274
932.61,3.997488801
932.62,3.998018018
932.63,3.998565773
932.64,3.999104913
932.65,3.999608288
932.66,4.000048746
932.67,4.000399136
932.68,4.000746105
932.69,4.001184018
932.7,4.001685752
932.71,4.002224153
932.72,4.002772067
932.73,4.003302337
932.74,4.003787811
932.75,4.004201333
932.76,4.004527528
932.77,4.00490781
932.78,4.005370009
932.79,4.005886973
932.8,4.006431552
932.81,4.006976594
932.82,4.007494946
932.83,4.007959458
932.84,4.008342977
932.85,4.009097681
932.86,4.010329495
932.87,4.011779931
932.88,4.013367525
932.89,4.015010809
932.9,4.016628319
932.91,4.018138589
932.92,4.019460153
932.93,4.020511545
932.94,4.021683742
932.95,4.023165745
932.96,4.024863808
932.97,4.026686028
932.98,4.0285405
932.99,4.030335321
933,4.031978586
933.01,4.03337839
933.02,4.035221252
933.03,4.03935307
933.04,4.044375247
933.05,4.049992724
933.06,4.055910441
933.07,4.061833336
933.08,4.067466351
933.09,4.072514423
933.1,4.076682494
933.11,4.08063471
933.12,4.085900454
933.13,4.092101056
933.14,4.098888234
933.15,4.105913708
933.16,4.112829196
933.17,4.119286417
933.18,4.12493709
933.19,4.129432933
933.2,4.133151603
933.21,4.137831419
933.22,4.143193764
933.23,4.148948382
933.24,4.154805021
933.25,4.160473424
933.26,4.16566334
933.27,4.170084512
933.28,4.174262468
933.29,4.180991069
933.3,4.189170062
933.31,4.19831888
933.32,4.207956954
933.33,4.217603717
933.34,4.226778601
933.35,4.235001038
933.36,4.24179046
933.37,4.245978268
933.38,4.250249563
933.39,4.255279364
933.4,4.260785118
933.41,4.266484276
933.42,4.272094286
933.43,4.277332596
933.44,4.281916657
933.45,4.285563916
933.46,4.294095011
933.47,4.304962781
933.48,4.317415898
933.49,4.330780294
933.5,4.344381904
933.51,4.35754666
933.52,4.369600495
933.53,4.379869343
933.54,4.388796939
933.55,4.401434896
933.56,4.416797924
933.57,4.433983276
933.58,4.452088204
933.59,4.470209961
933.6,4.4874458
933.61,4.502892972
933.62,4.515648731
933.63,4.523961495
933.64,4.532834345
933.65,4.543283426
933.66,4.554721744
933.67,4.566562306
933.68,4.578218118
933.69,4.589102188
933.7,4.598627521
933.71,4.606207126
933.72,4.614515025
933.73,4.625019949
933.74,4.637057933
933.75,4.649977322
933.76,4.663126462
933.77,4.675853697
933.78,4.687507374
933.79,4.697435838
933.8,4.706674618
933.81,4.72124859
933.82,4.738966147
933.83,4.758786101
933.84,4.779667267
933.85,4.800568459
933.86,4.82044849
933.87,4.838266175
933.88,4.852980326
933.89,4.866773446
933.9,4.885066485
933.91,4.906610397
933.92,4.930194827
933.93,4.954609422
933.94,4.978643825
933.95,5.001087683
933.96,5.020730641
933.97,5.036362343
933.98,5.0506154
933.99,5.068584493
934,5.089176922
934.01,5.111277877
934.02,5.133772549
934.03,5.155546128
934.04,5.175483805
934.05,5.19247077
934.06,5.209278702
934.07,5.238110743
934.08,5.273163878
934.09,5.312378
934.1,5.353693001
934.11,5.395048775
934.12,5.434385215
934.13,5.469642214
934.14,5.498759664
934.15,5.521996901
934.16,5.550414167
934.17,5.583883144
934.18,5.62052343
934.19,5.658454618
934.2,5.695796304
934.21,5.730668082
934.22,5.761189548
934.23,5.785480297
934.24,5.79822953
934.25,5.814079832
934.26,5.832245236
934.27,5.851742204
934.28,5.871587202
934.29,5.890796692
934.3,5.908387138
934.31,5.923375003
934.32,5.937357048
934.33,5.959521315
934.34,5.986469543
934.35,6.016617842
934.36,6.048382324
934.37,6.0801791
934.38,6.11042428
934.39,6.137533975
934.4,6.159924296
934.41,6.188286812
934.42,6.230295534
934.43,6.279774714
934.44,6.333944193
934.45,6.39002381
934.46,6.445233405
934.47,6.49679282
934.48,6.541921894
934.49,6.577840467
934.5,6.603110601
934.51,6.634787978
934.52,6.671093355
934.53,6.710060988
934.54,6.749725134
934.55,6.788120049
934.56,6.82327999
934.57,6.853239212
934.58,6.878504665
934.59,6.91239302
934.6,6.953598204
934.61,6.999698166
934.62,7.048270851
934.63,7.096894209
934.64,7.143146185
934.65,7.184604728
934.66,7.218847784
934.67,7.251035788
934.68,7.293796531
934.69,7.344163921
934.7,7.399307745
934.71,7.456397791
934.72,7.512603847
934.73,7.565095699
934.74,7.611043137
934.75,7.647615946
934.76,7.663047149
934.77,7.682052935
934.78,7.70383679
934.79,7.727219069
934.8,7.751020123
934.81,7.774060304
934.82,7.795159966
934.83,7.81313946
934.84,7.823785684
934.85,7.826519894
934.86,7.829844511
934.87,7.833564128
934.88,7.837483339
934.89,7.841406737
934.9,7.845138916
934.91,7.848484469
934.92,7.85124799
934.93,7.859773527
934.94,7.874631078
934.95,7.892132362
934.96,7.911293722
934.97,7.931131504
934.98,7.950662053
934.99,7.968901716
935,7.984866837
935.01,7.997573761
935.02,8.04913034
935.03,8.115167288
935.04,8.190856785
935.05,8.272100507
935.06,8.354800132
935.07,8.434857333
935.08,8.508173788
935.09,8.570651172
935.1,8.613744736
935.11,8.646975903
935.12,8.6873864
935.13,8.732600507
935.14,8.780242505
935.15,8.827936674
935.16,8.873307293
935.17,8.913978643
935.18,8.947575004
935.19,8.955871325
935.2,8.952997355
935.21,8.94961147
935.22,8.94590398
935.23,8.942065199
935.24,8.938285438
935.25,8.93475501
935.26,8.931664227
935.27,8.929203402
935.28,8.93608981
935.29,8.945014709
935.3,8.955244471
935.31,8.966225181
935.32,8.977402926
935.33,8.988223791
935.34,8.998133863
935.35,9.006579226
935.36,9.012245889
935.37,9.01611125
935.38,9.020811956
935.39,9.026071634
935.4,9.031613909
935.41,9.037162408
935.42,9.042440756
935.43,9.047172581
935.44,9.051081508
935.45,9.052357524
935.46,9.052618397
935.47,9.052925713
935.48,9.053262223
935.49,9.053610676
935.5,9.053953823
935.51,9.054274413
935.52,9.054555197
935.53,9.054778924
935.54,9.049848765
935.55,9.043492665
935.56,9.03620691
935.57,9.028386036
935.58,9.020424577
935.59,9.012717068
935.6,9.005658044
935.61,8.999642038
935.62,8.995413405
935.63,8.991912761
935.64,8.987655319
935.65,8.982891409
935.66,8.977871361
935.67,8.972845503
935.68,8.968064165
935.69,8.963777677
935.7,8.960236368
935.71,8.954236796
935.72,8.94465982
935.73,8.933376985
935.74,8.921022512
935.75,8.908230623
935.76,8.895635539
935.77,8.883871483
935.78,8.873572676
935.79,8.86537334
935.8,8.849340234
935.81,8.828884723
935.82,8.805436072
935.83,8.780264184
935.84,8.754638961
935.85,8.729830305
935.86,8.707108119
935.87,8.687742303
935.88,8.673817291
935.89,8.661333495
935.9,8.646149964
935.91,8.629159555
935.92,8.611255126
935.93,8.593329535
935.94,8.57627564
935.95,8.560986299
935.96,8.548354371
935.97,8.53966256
935.98,8.53002015
935.99,8.51865971
936,8.506219836
936.01,8.493339125
936.02,8.480656173
936.03,8.468809577
